# abs_path_raw: C:\Users\maruk\OneDrive - The University of Tokyo\ut\lab\raman\renishaw\250213\785streamatbottom2.wdf
# abs_path_ref: C:\Users\maruk\OneDrive - The University of Tokyo\ut\lab\raman\renishaw\250213\naph785.wdf
# calibration: ['naphthalene', 1, 'Lorentzian', [1147.2, 1382.2, 1464.5]]

1714.9063711037163,7.639605522155762
1713.9300912453743,7.639605522155762
1712.952839964288,25.460163116455078
1711.976560105946,10.181989669799805
1710.9993088248596,27.994766235351562
1710.022057543773,22.9001407623291
1709.0438348399418,25.43941307067871
1708.0665835588554,20.347379684448242
1707.0883608550243,20.343231201171875
1706.1101381511933,20.339080810546875
1705.131915447362,20.334932327270508
1704.1536927435309,15.248087882995605
1703.1744986169551,15.244976043701172
1702.196275913124,7.620932102203369
1701.2170817865483,5.079584121704102
1700.236916237228,15.235641479492188
1699.2577221106521,20.310041427612305
1698.277556561332,22.84412956237793
1697.2983624347562,15.226308822631836
1696.3181968854358,12.68599796295166
1695.3380313361154,30.440174102783203
1694.3568943640505,15.216976165771484
1693.3757573919854,27.892087936401367
1692.3955918426652,17.745882034301758
1691.4144548706001,25.3460750579834
1690.4323464757906,20.27271270751953
1689.4512095037255,25.335708618164062
1688.469101108916,12.665263175964355
1687.4879641368511,15.195205688476562
1686.504884319297,0.0
1685.5227759244872,12.657488822937012
1684.5406675296776,17.716856002807617
1683.5575877121234,25.30461311340332
1682.5745078945693,15.179658889770508
1681.591428077015,10.11769962310791
1680.6083482594609,20.23125457763672
1679.624297019162,7.585165977478027
1678.6412172016078,10.111482620239258
1677.657165961309,30.328229904174805
1676.67311472101,5.053668975830078
1675.6880920579667,45.47369384765625
1674.7040408176679,27.783782958984375
1673.7190181546243,17.67696189880371
1672.7339954915808,25.247623443603516
1671.7489728285375,12.621222496032715
1670.7629787427493,27.7609920501709
1669.777956079706,27.755294799804688
1668.7919619939178,15.136143684387207
1667.8059679081298,20.17738151550293
1666.8199738223418,17.65158462524414
1665.8330083138092,10.084548950195312
1664.847014228021,15.1237154006958
1663.8600487194883,17.640710830688477
1662.8730832109557,20.15666961669922
1661.886117702423,20.152528762817383
1660.8981807711457,25.185482025146484
1659.911215262613,15.108183860778809
1658.9232783313357,12.587564468383789
1657.9353414000584,0.0
1656.9464330460364,22.648298263549805
1655.958496114759,0.0
1654.969587760737,10.061769485473633
1653.9806794067154,12.574624061584473
1652.9917710526934,10.057628631591797
1652.0028626986714,22.62500762939453
1651.012982921905,-7.540116786956787
1650.0231031451383,12.564273834228516
1649.0332233683719,10.049348831176758
1648.0433435916052,25.11819839477539
1647.0534638148388,32.64693069458008
1646.0626126153275,22.597064971923828
1645.0717614158164,7.5308027267456055
1644.0809102163053,5.019500255584717
1643.090059016794,2.509232997894287
1642.0992078172828,32.613304138183594
1641.107385195027,20.06558609008789
1640.1155625727713,35.1075325012207
1639.1237399505155,0.0
1638.1319173282598,20.053173065185547
1637.1391232832593,10.024517059326172
1636.1473006610036,20.044897079467773
1635.1545066160031,12.525474548339844
1634.1617125710027,17.532045364379883
1633.1679471032578,0.0
1632.1751530582574,7.510631084442139
1631.1813875905123,12.515132904052734
1630.1876221227674,5.005019187927246
1629.1938566550223,40.03187942504883
1628.1991197645327,35.02065658569336
1627.2053542967876,15.00575065612793
1626.210617406298,20.00353240966797
1625.2158805158083,24.99924659729004
1624.2211436253187,14.996445655822754
1623.2254353120845,14.9933443069458
1622.2306984215948,24.98373794555664
1621.2349901083605,27.47642707824707
1620.2392817951263,42.45478439331055
1619.2426020591474,32.45870590209961
1618.2468937459132,24.96306610107422
1617.2502140099343,34.94105911254883
1616.2535342739554,14.971638679504395
1615.2568545379766,44.905616760253906
1614.2601748019977,22.448158264160156
1613.262523643274,24.937231063842773
1612.2648724845508,19.94565200805664
1611.2672213258272,24.926897048950195
1610.2695701671037,14.953039169311523
1609.2719190083803,24.916566848754883
1608.273296426912,34.87596130371094
1607.274673845444,22.415611267089844
1606.276051263976,9.960428237915039
1605.277428682508,9.958361625671387
1604.277834678295,34.84703826904297
1603.279212096827,54.748268127441406
1602.2796180926143,32.34453582763672
1601.2790526656568,47.262969970703125
1600.279458661444,12.435042381286621
1599.2798646572314,39.78387451171875
1598.279299230274,39.775611877441406
1597.2787338033168,59.65102767944336
1596.2781683763594,34.78920364379883
1595.2766315266574,34.781978607177734
1594.2760660997,44.710391998291016
1593.274529249998,44.70109939575195
1592.272992400296,47.174686431884766
1591.2704841278496,52.12960433959961
1590.2689472781476,47.15507507324219
1589.266439005701,89.32787322998047
1588.2639307332545,76.90522766113281
1587.2614224608078,89.29071807861328
1586.2589141883611,91.75192260742188
1585.25543449317,111.56695556640625
1584.251954797979,109.06498718261719
1583.2484751027876,101.60758209228516
1582.2449954075964,121.40816497802734
1581.241515712405,108.99687957763672
1580.2370645944693,91.63737487792969
1579.2326134765335,111.42765045166016
1578.2281623585977,136.16098022460938
1577.223711240662,106.43094635009766
1576.2182886999815,76.71329498291016
1575.2138375820457,89.06784057617188
1574.2084150413652,74.20772552490234
1573.2029925006848,96.44993591308594
1572.1965985372597,59.341426849365234
1571.1911759965792,61.80109405517578
1570.184782033154,49.43056106567383
1569.1783880697292,39.53620147705078
1568.171994106304,51.88043212890625
1567.1646287201343,37.049720764160156
1566.1582347567094,34.5725212097168
1565.1508693705396,22.220550537109375
1564.14350398437,29.6212158203125
1563.1351671754555,34.55086898803711
1562.127801789286,39.478458404541016
1561.1194649803717,19.735105514526367
1560.1111281714573,27.13010025024414
1559.102791362543,27.124431610107422
1558.0934831308841,46.841495513916016
1557.08514632197,36.9724006652832
1556.075838090311,17.250179290771484
1555.066529858652,22.174163818359375
1554.0572216269932,34.485931396484375
1553.0469419725896,14.776592254638672
1552.0376337409307,19.698001861572266
1551.027354086527,27.079084396362305
1550.0161030093789,54.14683532714844
1549.0058233549753,36.91056823730469
1547.995543700572,24.60189437866211
1546.9842926234237,27.05641746520996
1545.9730415462755,24.59159278869629
1544.9617904691274,31.96237564086914
1543.9495679692345,19.6650333404541
1542.9373454693418,27.033756256103516
1541.9260943921936,39.3135871887207
1540.9129004695562,34.39217758178711
1539.9006779696635,27.016761779785156
1538.8884554697706,19.644433975219727
1537.8752615471333,24.55039405822754
1536.862067624496,26.999771118164062
1535.8488737018586,29.448116302490234
1534.8347083564765,19.627958297729492
1533.8215144338392,17.170860290527344
1532.8073490884572,4.904930591583252
1531.7931837430751,22.067554473876953
1530.7780469749484,-2.4514358043670654
1529.7638816295664,22.058290481567383
1528.74874486144,4.900813102722168
1527.7336080933133,24.498918533325195
1526.7184713251866,17.145641326904297
1525.7033345570599,31.835214614868164
1524.6872263661887,31.828523635864258
1523.6711181753174,39.16533660888672
1522.6550099844462,24.473190307617188
1521.6389017935749,9.78721809387207
1520.6227936027037,26.909189224243164
1519.605713989088,4.8915510177612305
1518.5886343754719,29.3431339263916
1517.571554761856,19.557973861694336
1516.5535037254956,24.442323684692383
1515.5364241118798,43.98692321777344
1514.5183730755193,14.659221649169922
1513.5003220391588,9.770757675170898
1512.4822710027984,24.421751022338867
1511.4632485436932,29.299930572509766
1510.4451975073328,26.85261344909668
1509.4261750482276,39.05011749267578
1508.4071525891225,14.640708923339844
1507.3871587072726,26.83564567565918
1506.3681362481677,21.95180892944336
1505.348142366318,24.385759353637695
1504.328148484468,17.06643295288086
1503.3081546026185,21.937929153442383
1502.287189298024,0.0
1501.2662239934298,29.238235473632812
1500.24623011158,19.488046646118164
1499.224293384241,26.790409088134766
1498.2033280796468,24.34977912902832
1497.1823627750523,19.475711822509766
1496.1604260477134,9.735800743103027
1495.1384893203744,19.46748924255371
1494.1155811702909,9.731689453125
1493.093644442952,14.594451904296875
1492.0707362928683,31.614633560180664
1491.0478281427847,29.176572799682617
1490.0249199927011,17.016071319580078
1489.0020118426175,12.151768684387207
1487.9781322697893,4.85968017578125
1486.9552241197057,34.01057052612305
1485.9313445468777,29.145753860473633
1484.9064935513047,9.713196754455566
1483.8826139784767,24.277854919433594
1482.8577629829038,26.699993133544922
1481.832911987331,9.70703411102295
1480.808060991758,12.1312255859375
1479.7832099961854,14.554388999938965
1478.7573875778678,2.425218105316162
1477.7315651595504,36.37057113647461
1476.705742741233,24.241912841796875
1475.6799203229155,14.542067527770996
1474.654097904598,26.654809951782227
1473.627304063536,19.381210327148438
1472.600510222474,19.377103805541992
1471.573716381412,29.059497833251953
1470.54692254035,41.158897399902344
1469.5191572765432,38.72957229614258
1468.4913920127365,4.840170383453369
1467.4636267489298,26.615291595458984
1466.4358614851233,26.609647750854492
1465.4071247985719,9.674182891845703
1464.3793595347652,24.180326461791992
1463.350622848214,9.67007827758789
1462.3218861616626,24.17006492614746
1461.2921780523668,24.164936065673828
1460.2634413658154,26.575786590576172
1459.2337332565196,24.15467643737793
1458.2040251472235,14.489727973937988
1457.173345615183,14.486650466918945
1456.1436375058872,21.725360870361328
1455.1129579738465,28.96099281311035
1454.082278441806,26.54193687438965
1453.0515989097655,43.42302703857422
1452.020919377725,33.76628875732422
1450.9892684229399,16.879554748535156
1449.9576174681547,28.930227279663086
1448.9259665133695,21.693056106567383
1447.8943155585844,7.229480743408203
1446.8616931810545,26.502456665039062
1445.829070803525,14.45280933380127
1444.796448425995,16.858022689819336
1443.7638260484653,21.66998863220215
1442.7312036709357,24.07263946533203
1441.6976098706612,19.254011154174805
1440.6640160703869,28.874868392944336
1439.6304222701124,16.840085983276367
1438.596828469838,19.24171257019043
1437.562263246819,21.642314910888672
1436.5276980238,19.2335147857666
1435.493132800781,24.03676986694336
1434.458567577762,28.837974548339844
1433.424002354743,26.429174423217773
1432.3884657089793,21.619260787963867
1431.3529290632157,19.213022232055664
1430.317392417452,19.208925247192383
1429.2808843489438,16.804224014282227
1428.2453477031802,26.401002883911133
1427.208839634672,28.79494857788086
1426.1723315661638,11.99533462524414
1425.134852074911,16.789884567260742
1424.0983440064026,7.194128513336182
1423.0608645151497,35.96296310424805
1422.023385023897,4.794037342071533
1420.985905532644,7.189520359039307
1419.9474546186466,23.95994758605957
1418.9099751273936,31.141277313232422
1417.8715242133962,9.579883575439453
1416.8330732993986,19.155672073364258
1415.7936509626566,19.15157699584961
1414.7552000486592,21.540918350219727
1413.715777711917,16.750465393066406
1412.676355375175,26.316530227661133
1411.6369330384327,23.91900062561035
1410.5965392789462,11.956941604614258
1409.5561455194595,31.081396102905273
1408.5157517599728,16.732555389404297
1407.475358000486,19.11882781982422
1406.4349642409993,9.557367324829102
1405.393599058768,31.054792404174805
1404.3522338765365,38.213096618652344
1403.3108686943053,16.714649200439453
1402.269503512074,19.098363876342773
1401.2271669070979,28.641408920288086
1400.184830302122,31.021543502807617
1399.142493697146,26.24337387084961
1398.10015709217,26.237747192382812
1397.057820487194,38.15581512451172
1396.0145124594735,28.61072540283203
1394.971204431753,30.988304138183594
1393.9278964040325,33.364864349365234
1392.883616953567,30.975011825561523
1391.8403089258466,23.821819305419922
1390.7960294753814,26.19837760925293
1389.7517500249162,21.430435180664062
1388.7064991517063,38.09037399291992
1387.6622197012412,28.561647415161133
1386.6169688280313,33.31476593017578
1385.5717179548217,23.79115104675293
1384.5264670816118,21.40743637084961
1383.4802447856573,28.5371150970459
1382.4349939124475,2.37758207321167
1381.3887716164932,30.90192222595215
1380.341577897794,23.765600204467773
1379.2953556018397,35.6407356262207
1378.2481618831405,23.755382537841797
1377.2009681644415,33.25038146972656
1376.1537744457426,16.62161636352539
1375.1065807270434,30.86207389831543
1374.0584155855997,28.4819393157959
1373.0112218669008,42.713714599609375
1371.963056725457,30.84215545654297
1370.9139201612686,23.719627380371094
1369.865755019825,16.60016441345215
1368.8166184556367,21.338472366333008
1367.7674818914484,23.704307556152344
1366.7183453272603,18.959362030029297
1365.6682373403273,21.32468605041504
1364.619100776139,21.320091247558594
1363.568992789206,18.94710922241211
1362.518884802273,28.41453742980957
1361.4678053925957,28.408411026000977
1360.4176974056627,35.50285720825195
1359.3666179959853,11.831733703613281
1358.3155385863076,33.121707916259766
1357.2634877538856,18.922607421875
1356.212408344208,18.91852569580078
1355.1603575117858,28.37166404724121
1354.1083066793637,14.182770729064941
1353.0562558469417,33.08598709106445
1352.003233591775,28.353296279907227
1350.9511827593526,37.79623031616211
1349.8981605041859,33.06455993652344
1348.845138249019,18.88995361328125
1347.7911445711077,18.88587188720703
1346.738122315941,28.32268714904785
1345.6841286380295,28.316566467285156
1344.6301349601183,37.74726104736328
1343.5751698594622,44.815181732177734
1342.5211761815508,21.223655700683594
1341.466211080895,23.576738357543945
1340.4112459802388,23.571640014648438
1339.3562808795828,30.636503219604492
1338.3003443561822,44.76673889160156
1337.2444078327817,28.26761245727539
1336.188471309381,28.26149559020996
1335.1325347859804,32.96460723876953
1334.0765982625796,42.3738899230957
1333.0196903164344,30.596738815307617
1331.9627823702892,21.177770614624023
1330.905874424144,37.641212463378906
1329.8479950552542,18.816530227661133
1328.791087109109,18.81245231628418
1327.733207740219,47.020938873291016
1326.6753283713292,32.90752410888672
1325.6164775796947,51.70061492919922
1324.5585982108048,23.49518394470215
1323.4997474191705,23.490089416503906
1322.440896627536,14.090996742248535
1321.3820458359014,39.915828704833984
1320.3222236215224,53.9920539855957
1319.2624014071432,21.12274169921875
1318.2025791927642,25.811080932617188
1317.142756978385,25.805477142333984
1316.082934764006,37.52709197998047
1315.0221411268822,25.794273376464844
1313.9613474897585,30.477521896362305
1312.9005538526349,28.126985549926758
1311.8387887927665,23.434062957763672
1310.7779951556429,39.82925033569336
1309.7162300957743,46.84775924682617
1308.654465035906,46.83757781982422
1307.5917285532933,49.168766021728516
1306.529963493425,44.47635269165039
1305.467227010812,39.785980224609375
1304.404490528199,32.75779724121094
1303.3407826228413,42.10800552368164
1302.2780461402283,53.79296875
1301.2143382348709,44.428001403808594
1300.1506303295132,49.09394836425781
1299.0869224241558,70.11894226074219
1298.0222430960534,51.40936279296875
1296.9575637679513,51.398170471191406
1295.892884439849,86.42355346679688
1294.828205111747,72.39315032958984
1293.7635257836448,88.72065734863281
1292.697875032798,107.37528991699219
1291.632224281951,105.01815795898438
1290.5665735311043,109.66172790527344
1289.4999513575128,123.63414001464844
1288.434300606666,111.94612884521484
1287.3676784330746,135.23873901367188
1286.3010562594832,111.89730834960938
1285.233462663147,135.17974853515625
1284.1668404895559,123.49937438964844
1283.0992468932197,123.47242736816406
1282.0316532968836,125.77464294433594
1280.963088277803,116.43257904052734
1279.895494681467,109.4227294921875
1278.8269296623862,121.0370101928711
1277.7583646433056,130.319091796875
1276.6897996242249,107.0244369506836
1275.6202631823996,95.3705062866211
1274.5507267405744,81.39606475830078
1273.4811902987492,76.72808837890625
1272.4116538569237,60.4392204284668
1271.3411459923539,65.07416534423828
1270.2716095505286,60.41279602050781
1269.2011016859587,55.75346374511719
1268.1296223986442,60.386375427246094
1267.0591145340743,46.44089889526367
1265.9876352467597,46.43073654174805
1264.9161559594452,55.70469284057617
1263.8446766721308,62.6540641784668
1262.7731973848163,55.6803092956543
1261.700746674757,44.070594787597656
1260.628295964698,13.913983345031738
1259.5558452546388,55.643741607666016
1258.4824231218352,32.45174026489258
1257.409972411776,20.857263565063477
1256.3365502789723,34.75448989868164
1255.2631281461684,30.113956451416016
1254.18873459062,41.68710708618164
1253.1153124578163,34.73163986206055
1252.0409189022678,46.298702239990234
1250.9665253467194,55.54625701904297
1249.8911603684264,55.53407669067383
1248.816766812878,18.50729751586914
1247.741401834585,37.006473541259766
1246.666036856292,30.0611629486084
1245.590671877999,39.3021240234375
1244.5143354769616,30.0479679107666
1243.437999075924,32.35224533081055
1242.3616626748862,16.172571182250977
1241.2853262738486,23.09859848022461
1240.2080184500664,48.496402740478516
1239.1316820490288,27.70614242553711
1238.0543742252466,46.1667594909668
1236.9760949787196,23.078306198120117
1235.8987871549375,9.229293823242188
1234.8205079084107,23.068161010742188
1233.7422286618837,34.594635009765625
1232.663949415357,20.752216339111328
1231.5846987460855,36.88471603393555
1230.5064194995587,27.65744972229004
1229.4271688302872,25.347084045410156
1228.346946738271,25.341506958007812
1227.2676960689996,39.1555290222168
1226.1874739769835,23.0275936126709
1225.1072518849674,27.62702751159668
1224.0270297929512,18.413963317871094
1222.9468077009353,13.8074312210083
1221.8656141861745,9.202926635742188
1220.7844206714137,23.002246856689453
1219.7032271566532,32.196048736572266
1218.6210622191477,34.48816680908203
1217.5398687043871,9.194816589355469
1216.4577037668817,18.38558006286621
1215.3755388293764,27.572288513183594
1214.2924024691265,22.971839904785156
1213.210237531621,16.07674217224121
1212.1271011713711,22.961706161499023
1211.0429933883765,27.547969818115234
1209.9598570281266,18.36125946044922
1208.875749245132,6.883952617645264
1207.7926128848821,22.941444396972656
1206.707533679143,18.349102020263672
1205.6234258961483,13.758788108825684
1204.5383466904093,25.218873977661133
1203.4542389074147,13.752710342407227
1202.3681882789308,18.332897186279297
1201.2831090731918,18.328845977783203
1200.1970584447079,20.615394592285156
1199.1119792389686,9.160371780395508
1198.0249571877403,25.185453414916992
1196.9389065592566,4.578160762786865
1195.8528559307726,0.0
1194.7658338795443,22.880680084228516
1193.678811828316,20.588056564331055
1192.590818354343,16.009389877319336
1191.5037963031143,16.00584602355957
1190.4158028291413,20.574390411376953
1189.3278093551683,13.713223457336426
1188.2388444584506,9.140125274658203
1187.1508509844775,29.698827743530273
1186.0618860877598,6.852057456970215
1184.9729211910424,15.98459243774414
1183.8839562943247,20.54706573486328
1182.7940199748623,25.107515335083008
1181.7040836554002,13.691972732543945
1180.6141473359378,22.814895629882812
1179.5242110164754,27.37180519104004
1178.4333032742686,15.963345527648926
1177.3423955320618,25.079694747924805
1176.2514877898548,13.676798820495605
1175.160580047648,20.51064682006836
1174.0687008826965,13.670729637145996
1172.9777931404894,25.05744171142578
1171.885913975538,22.774436950683594
1170.7930633878418,9.107751846313477
1169.7011842228903,25.040756225585938
1168.6083336351942,22.75926971435547
1167.515483047498,31.855897903442383
1166.4216610370572,13.649495124816895
1165.328810449361,40.93938446044922
1164.2349884389205,22.73904800415039
1163.1411664284797,31.827592849731445
1162.0473444180388,2.2728941440582275
1160.9525509848536,9.089554786682129
1159.857757551668,11.359416961669922
1158.7629641184828,15.899645805358887
1157.6681706852974,6.812618255615234
1156.5724058293674,4.540734767913818
1155.4776123961822,13.619173049926758
1154.3808761175076,20.424213409423828
1153.2851112615774,-9.075407028198242
1152.1893464056475,9.073386192321777
1151.0926101269729,9.071366310119629
1149.9958738482983,6.802009105682373
1148.898166146879,29.468807220458984
1147.8014298682044,9.06530475616455
1146.7037221667852,9.063284873962402
1145.606014465366,6.7959489822387695
1144.5073353412022,22.648113250732422
1143.409627639783,27.171676635742188
1142.310948515619,20.37421226501465
1141.2122693914553,18.106372833251953
1140.1135902672913,2.262791633605957
1139.013939720383,20.36058235168457
1137.9142891734743,22.617820739746094
1136.814638626566,2.261277198791504
1135.7149880796576,20.346952438354492
1134.6143661100043,18.082141876220703
1133.5137441403513,15.818341255187988
1132.4131221706982,22.59258460998535
1131.3125002010452,20.32878303527832
1130.2109068086475,27.098989486694336
1129.1093134162497,15.804211616516113
1128.007720023852,24.829639434814453
1126.9061266314543,13.540412902832031
1125.803561816312,13.537385940551758
1124.7009970011698,18.04581069946289
1123.5984321860274,13.531332015991211
1122.495867370885,15.7830228805542
1121.3923311329982,18.03370475769043
1120.288794895111,15.775961875915527
1119.1852586572243,18.025634765625
1118.0817224193372,29.28510093688965
1116.9772147587057,22.521957397460938
1115.8727070980742,22.516916275024414
1114.7681994374427,13.507123947143555
1113.6627203540663,29.258880615234375
1112.5582126934348,4.500357627868652
1111.4527336100587,17.997398376464844
1110.3472545266825,17.993364334106445
1109.2408040205617,13.491998672485352
1108.1343535144408,2.2481625080108643
1107.0279030083202,0.0
1105.9214525021994,26.965850830078125
1104.8150019960785,17.973201751708984
1103.707580067213,2.2461464405059814
1102.6001581383478,24.70206642150879
1101.4927362094822,8.98055362701416
1100.3843428578723,13.46780776977539
1099.2769209290068,8.976522445678711
1098.1675561546522,8.974507331848145
1097.0591628030422,8.972492218017578
1095.950769451432,0.0
1094.8414046770774,11.210577011108398
1093.7320399027228,4.4832234382629395
1092.6226751283682,29.1344051361084
1091.512338931269,15.68423080444336
1090.4020027341696,4.480201244354248
1089.2916665370703,31.354358673095703
1088.181330339971,22.390933990478516
1087.070022720127,17.908720016479492
1085.9587151002834,8.952345848083496
1084.8474074804394,13.425497055053711
1083.7360998605955,11.185397148132324
1082.623820818007,11.182879447937012
1081.512513198163,11.1803617477417
1080.39926273283,6.706707000732422
1079.2869836902414,11.175328254699707
1078.1737332249083,13.407373428344727
1077.0614541823197,13.404353141784668
1075.947232294242,13.401333808898926
1074.833981828909,6.699157238006592
1073.7197599408312,2.2325491905212402
1072.6055380527534,17.856367111206055
1071.4913161646757,15.620798110961914
1070.377094276598,20.079355239868164
1069.2619009657756,11.152681350708008
1068.1467076549532,20.07029914855957
1067.0315143441308,17.836240768432617
1065.915349610564,4.458054065704346
1064.8001562997415,8.914095878601074
1063.6839915661744,-4.4560418128967285
1062.566855409863,26.730215072631836
1061.4506906762958,26.724180221557617
1060.3335545199843,13.3590726852417
1059.2164183636728,11.130045890808105
1058.099282207361,20.029556274414062
1056.9811746283049,22.25003433227539
1055.8630670492487,6.673501491546631
1054.7449594701925,2.2239978313446045
1053.6268518911363,0.0
1052.5077728893355,2.222992181777954
1051.3886938875346,8.889958381652832
1050.2696148857337,11.109933853149414
1049.150535883933,0.0
1048.0304854593874,22.209814071655273
1046.9104350348418,4.440957546234131
1045.7903846102965,15.539834022521973
1044.670334185751,6.658421039581299
1043.5493123384608,4.4379425048828125
1042.4282904911709,2.21846866607666
1041.3072686438807,4.435932159423828
1040.185275373846,15.522245407104492
1039.064253526556,17.735689163208008
1037.9422602565212,19.948129653930664
1036.819295563742,4.431912899017334
1035.6973022937073,-4.430908203125
1034.574337600928,24.364469528198242
1033.4513729081486,17.715595245361328
1032.3284082153693,17.711576461791992
1031.2044720998454,8.853779792785645
1030.0805359843214,19.91648292541504
1028.9565998687974,13.274642944335938
1027.8326637532737,11.059691429138184
1026.707756215005,11.057180404663086
1025.5828486767364,15.476537704467773
1024.457941138468,4.420863628387451
1023.3330336001994,13.259578704833984
1022.2071546391862,13.256566047668457
1021.081275678173,13.253554344177246
1019.9553967171598,22.084238052368164
1018.8295177561466,24.287139892578125
1017.7026673723889,11.03709888458252
1016.5758169886311,13.241507530212402
1015.4489666048734,19.857744216918945
1014.3211447983709,8.82365608215332
1013.1933229918685,24.25953483581543
1012.0655011853661,6.614731311798096
1010.9376793788637,13.226451873779297
1009.8088861496167,8.815628051757812
1008.6810643431143,8.813620567321777
1007.5522711138672,11.014517784118652
1006.4225064618755,6.607205390930176
1005.2937132326285,17.61520004272461
1004.1639485806369,17.611186981201172
1003.0332125059006,19.80807113647461
1001.9034478539089,19.803558349609375
1000.7727117791727,19.799043655395508
999.6419757044364,15.395745277404785
998.5112396297002,10.994453430175781
997.3805035549639,21.9838924407959
996.248796057483,6.593663215637207
995.1170885600021,6.592158794403076
993.9853810625212,4.39376974105835
992.8527021422957,8.785533905029297
991.7200232220703,17.56705665588379
990.5873443018447,10.976903915405273
989.4546653816192,13.16927719116211
988.3210150386491,28.526918411254883
987.187364695679,37.2959098815918
986.0537143527089,17.547006607055664
984.9200640097387,30.700244903564453
983.785442244024,17.53898811340332
982.6508204783092,26.302467346191406
981.5161987125945,15.339598655700684
980.3806055241351,19.717830657958984
979.2459837584204,8.761475563049316
978.110390569961,17.518943786621094
976.9738259587571,21.89366912841797
975.8382327702977,32.83298873901367
974.7016681590937,19.695283889770508
973.5651035478897,6.563591957092285
972.4275675139411,15.311541557312012
971.2910029027372,4.373724460601807
970.1534668687885,34.981781005859375
969.01593083484,8.743441581726074
967.8774233781468,24.038955688476562
966.7398873441981,19.66373062133789
965.6013798875049,13.106148719787598
964.4619010080671,24.022430419921875
963.3233935513739,17.466854095458984
962.183914671936,28.37712860107422
961.0444357924982,21.82355308532715
959.9049569130603,17.454837799072266
958.7645066108779,28.357603073120117
957.6240563086955,17.446826934814453
956.483606006513,10.901764869689941
955.3431557043306,10.899261474609375
954.2017339794035,28.331573486328125
953.0603122544763,0.0
951.9188905295493,34.853614807128906
950.7774688046222,23.95635414123535
949.6350756569506,39.192298889160156
948.4926825092789,15.237947463989258
947.3502893616072,19.587142944335938
946.2069247911909,21.75848960876465
945.0635602207745,34.80557632446289
943.9201956503582,30.4478759765625
942.7768310799419,19.56913185119629
941.632495086781,21.73847770690918
940.4881590936201,8.693390846252441
939.3438231004592,19.555627822875977
938.1994871072982,21.723472595214844
937.0541796913926,21.71847152709961
935.908872275487,30.39885902404785
934.7635648595816,8.683387756347656
933.6172860209314,32.55520248413086
932.4710071822813,13.019081115722656
931.324728343631,23.862815856933594
930.1784495049809,34.7015495300293
929.0311992435861,4.33669376373291
927.8839489821913,21.678468704223633
926.7366987207965,21.67346954345703
925.5894484594018,4.3336944580078125
924.4412267752623,6.499041557312012
923.293005091123,12.995084762573242
922.1447834069835,28.149518966674805
920.9955903000995,19.48362922668457
919.8463971932155,10.82174015045166
918.6972040863315,-4.327696800231934
917.5480109794474,12.980091094970703
916.3978464498188,8.651395797729492
915.2476819201902,17.29879379272461
914.0975173905615,21.61849594116211
912.9473528609328,0.0
911.7962169085596,12.965102195739746
910.6450809561863,2.160350799560547
909.4939450038131,12.959107398986816
908.3418376286952,12.956110000610352
907.190701676322,15.11196517944336
906.0376228784594,30.216938018798828
904.8855155033416,8.631413459777832
903.732436705479,10.786768913269043
902.5803293303612,8.62741756439209
901.4262791097541,23.719905853271484
900.2732003118915,12.935134887695312
899.1191500912845,2.1553564071655273
897.9650998706774,12.929142951965332
896.8110496500702,6.46307373046875
895.6560280067184,12.923151969909668
894.5010063633667,12.920156478881836
893.345984720015,21.528600692749023
892.1909630766633,10.761804580688477
891.0349700105669,8.607447624206543
889.8789769444705,8.605450630187988
888.7229838783742,10.754318237304688
887.5669908122778,8.601457595825195
886.4100263234369,27.94824981689453
885.2530618345959,15.045564651489258
884.0951259230103,15.042071342468262
882.9381614341693,17.186946868896484
881.7802255225837,0.0
880.6222896109981,6.442111492156982
879.463382276668,23.61558723449707
878.3054463650824,21.463726043701172
877.1465390307521,19.312864303588867
875.9866602736773,10.726875305175781
874.8277529393471,12.869256973266602
873.6678741822723,2.1443774700164795
872.5079954251975,8.575514793395996
871.3481166681225,0.0
870.1872664883032,4.285762310028076
869.0264163084837,17.13905906677246
867.8655661286642,6.4256510734558105
866.7037445261002,21.413850784301758
865.5428943462807,6.422659397125244
864.380101320972,8.561551094055176
863.218279718408,12.839335441589355
862.056458115844,19.2545166015625
860.8936650905353,4.27778434753418
859.7308720652265,6.4151811599731445
858.5671076171732,6.4136857986450195
857.4033431691199,23.511363983154297
856.2395787210667,17.095186233520508
855.0758142730133,12.818399429321289
853.91204982496,12.815408706665039
852.7473139541621,8.54161262512207
851.5825780833642,4.269809722900391
850.4168707898216,10.672032356262207
849.2511634962791,4.267816543579102
848.0864276254812,19.2006893157959
846.919748909194,8.531646728515625
845.7540416156514,17.059307098388672
844.5873628993643,21.31915283203125
843.4206841830771,17.05133628845215
842.25400546679,25.571027755737305
841.0863553277582,17.043365478515625
839.9187051887263,14.909459114074707
838.7510550496946,17.035396575927734
837.5824334879183,21.289264678955078
836.4147833488864,12.770570755004883
835.2451903643654,23.407236099243164
834.076568802589,8.509730339050293
832.9079472408126,8.50773811340332
831.7383542562916,8.505745887756348
830.567789849026,25.51126480102539
829.3981968645049,10.627203941345215
828.2276324572393,16.999542236328125
827.0570680499736,25.49333953857422
825.886503642708,19.115524291992188
824.7149678126978,14.86414623260498
823.5444034054321,16.983612060546875
822.3718961526772,16.979631423950195
821.200360322667,16.975648880004883
820.0278530699121,6.364375114440918
818.8553458171573,6.362882137298584
817.6828385644023,12.7227783203125
816.5093598889028,8.47986125946045
815.3358812134034,25.433612823486328
814.1624025379039,33.90352249145508
812.9889238624044,12.710835456848145
811.8144737641603,12.707850456237793
810.6400236659161,4.234955310821533
809.4655735676721,21.1697998046875
808.2901520466834,25.397790908813477
807.1157019484392,8.463940620422363
805.9393090047058,23.27036476135254
804.7638874837171,6.344970703125
803.5874945399838,16.915943145751953
802.4111015962504,4.227991104125977
801.234708652517,8.45399284362793
800.0583157087838,10.565004348754883
798.8809513423058,-6.337510585784912
797.7035869758278,23.23206901550293
796.5252511866053,33.78414535522461
795.3478868201272,18.99910545349121
794.1695510309047,16.884117126464844
792.9902438189374,18.990156173706055
791.8119080297149,10.547600746154785
790.6326008177476,10.54511547088623
789.4532936057805,6.325577735900879
788.2730149710686,10.540143966674805
787.0937077591014,4.215063571929932
785.9134291243896,16.856277465820312
784.7321790669331,21.06537628173828
783.5519004322214,16.848325729370117
782.3706503747649,2.105543613433838
781.1894003173085,6.315140247344971
780.008150259852,10.522748947143555
778.8259287796509,12.624317169189453
777.6437072994498,21.035560607910156
776.4614858192488,18.927532196044922
775.2782929163031,4.205124378204346
774.0951000133574,14.714457511901855
772.9119071104118,-2.1015686988830566
771.728714207466,4.202143669128418
770.5445498817758,0.0
769.3603855560855,0.0
768.1762212303952,23.09539794921875
766.9910854819602,20.990848541259766
765.8059497335254,0.0
764.6208139850904,12.588549613952637
763.4356782366555,12.585569381713867
762.249571065476,0.0
761.0634638942964,10.483009338378906
759.8763853003722,12.576631546020508
758.6902781291927,20.956087112426758
757.5031995352685,20.951122283935547
756.3161209413445,12.567693710327148
755.1280709246756,4.188238143920898
753.9409923307514,-2.0936226844787598
752.7529423140827,12.558757781982422
751.5639208746693,16.741039276123047
750.3758708580006,16.73706817626953
749.1868494185871,14.641460418701172
747.9968565564292,12.546844482421875
746.8078351170158,25.08773422241211
745.6178422548577,22.99163055419922
744.4278493926997,20.89651870727539
743.2378565305418,16.713245391845703
742.0468922456391,25.063913345336914
740.8559279607365,22.96979522705078
739.6649636758339,18.789003372192383
738.4730279681866,25.046049118041992
737.2810922605394,0.0
736.0891565528921,10.430892944335938
734.8972208452448,16.68545913696289
733.7043137148529,0.0
732.511406584461,18.7622127532959
731.3184994540692,2.0841941833496094
730.1246209009328,4.167396545410156
728.9307423477962,-10.416010856628418
727.7368637946597,22.90976905822754
726.5429852415233,4.1644206047058105
725.3481352656421,20.8171443939209
724.153285289761,16.649747848510742
722.9584353138799,-4.161445140838623
721.7626139152542,12.48136043548584
720.5667925166284,6.239192485809326
719.3709711180028,10.396175384521484
718.1741782966324,8.314956665039062
716.9783568980067,16.625947952270508
715.7805926538917,8.310990333557129
714.5837998325213,29.081527709960938
713.3860355884065,10.383781433105469
712.1882713442915,20.762605667114258
710.9905071001765,16.60611915588379
709.7917714333169,0.0
708.594007189202,8.299094200134277
707.3943000995978,12.445667266845703
706.1955644327381,8.29512882232666
704.9958573431339,20.732868194580078
703.7961502535297,12.436747550964355
702.5964431639255,4.144591331481934
701.3957646515768,14.50260066986084
700.1950861392279,20.71304702758789
698.9944076268791,6.212427616119385
697.7937291145303,18.632823944091797
696.5920791794368,10.349091529846191
695.3904292443434,24.83187484741211
694.1878078865053,12.412964820861816
692.9851865286673,2.0683321952819824
691.7825651708292,16.542694091796875
690.5799438129911,14.471390724182129
689.3773224551531,-8.26738452911377
688.1737296745705,16.530807495117188
686.9691654712432,6.197566986083984
685.7655726906605,2.0653603076934814
684.5610084873332,10.324325561523438
683.3564442840059,16.51495933532715
682.1518800806786,16.510997772216797
680.9463444546067,18.570417404174805
679.7408088285348,4.125769138336182
678.5352732024628,24.748672485351562
677.3287661536464,18.557048797607422
676.1222591048298,10.30699634552002
674.9157520560133,8.243616104125977
673.7092450071967,8.241636276245117
672.5017665356356,18.539226531982422
671.2942880640744,22.653610229492188
670.0858381697686,10.294620513916016
668.8783596982075,14.409004211425781
667.6699098039018,16.46347427368164
666.461459909596,16.459514617919922
665.2520385925455,22.626388549804688
664.0426172754952,14.395146369934082
662.8331959584448,16.4476375579834
661.6228032186498,26.720977783203125
660.4133819015995,6.164895057678223
659.2029891618043,2.0544703006744385
657.9916249992648,8.215901374816895
656.7812322594698,22.588287353515625
655.5698680969301,4.105971813201904
654.3575325116459,22.577404022216797
653.1461683491062,12.311979293823242
651.933832763822,12.309011459350586
650.7214971785378,10.255036354064941
649.5081901705089,8.20205020904541
648.2958545852247,8.200072288513184
647.0815761544512,20.4952335357666
645.8682691464223,16.392230987548828
644.6539907156488,4.0970683097839355
643.4397122848753,18.432357788085938
642.2254338541019,16.380361557006836
641.0111554233284,10.23525333404541
639.7959055698103,24.558673858642578
638.5806557162922,14.322432518005371
637.3644344400294,12.273404121398926
636.1482131637667,8.180291175842285
634.9319918875041,20.445785522460938
633.7157706112413,12.264504432678223
632.4985779122339,16.348718643188477
631.2813852132266,10.215476989746094
630.0641925142193,16.340808868408203
628.8460283924674,4.084213733673096
627.6278642707153,2.0416126251220703
626.4097001489635,14.287827491760254
625.1915360272114,20.406240463256836
623.9724004827149,6.120389461517334
622.7532649382183,18.356719970703125
621.5331579709771,12.234848022460938
620.313051003736,18.347824096679688
619.0929440364947,16.305225372314453
617.8728370692535,18.338930130004883
616.6517586792677,10.185824394226074
615.4306802892819,18.330036163330078
614.2096018992961,10.180883407592773
612.9885235093103,6.107048034667969
611.7664736965799,14.246319770812988
610.5444238838494,6.10408353805542
609.3214026483744,18.30780601501465
608.0983814128992,12.202239990234375
